# Pulseq sequence file
# Created by MATLAB mr toolbox

[VERSION]
major 1
minor 4
revision 0

[DEFINITIONS]
AdcRasterTime 1e-07 
BlockDurationRaster 1e-05 
FOV 0.22 0.22 0.045 
GradientRasterTime 1e-05 
Name epi-diff 
RadiofrequencyRasterTime 1e-06 
TotalDuration 210.06972 

# Format of blocks:
# NUM DUR RF  GX  GY  GZ  ADC  EXT
[BLOCKS]
    1 350   0   1   1   1  0  0
    2 1161   1   2   2   2  0  0
    3 317   2   0   0   3  0  1
    4  94   0   0   0   4  0  0
    5 2895   0   5   5   5  0  0
    6  95   0   6   6   6  0  0
    7 515   3   0   0   7  0  0
    8  95   0   6   6   6  0  0
    9 1438   0   0   0   0  0  0
   10 1269   0   5   5   5  0  0
   11  46   0   8   9   0  0  0
   12  53   0  10  11   0  1  0
   13  53   0  12  13   0  1  0
   14  53   0  10  13   0  1  0
   15  53   0  12  13   0  1  0
   16  53   0  10  13   0  1  0
   17  53   0  12  13   0  1  0
   18  53   0  10  13   0  1  0
   19  53   0  12  13   0  1  0
   20  53   0  10  13   0  1  0
   21  53   0  12  13   0  1  0
   22  53   0  10  13   0  1  0
   23  53   0  12  13   0  1  0
   24  53   0  10  13   0  1  0
   25  53   0  12  13   0  1  0
   26  53   0  10  13   0  1  0
   27  53   0  12  13   0  1  0
   28  53   0  10  13   0  1  0
   29  53   0  12  13   0  1  0
   30  53   0  10  13   0  1  0
   31  53   0  12  13   0  1  0
   32  53   0  10  13   0  1  0
   33  53   0  12  14   0  1  0
   34  46   0  15  16   0  0  0
   35 18300   0   0   0   0  0  0
   36 350   0   1   1   1  0  0
   37 1161   1   2   2   2  0  0
   38 317   4   0   0   3  0  1
   39  94   0   0   0   4  0  0
   40 2895   0   5   5   5  0  0
   41  95   0   6   6   6  0  0
   42 515   5   0   0   7  0  0
   43  95   0   6   6   6  0  0
   44 1438   0   0   0   0  0  0
   45 1269   0   5   5   5  0  0
   46  46   0   8   9   0  0  0
   47  53   0  10  11   0  1  0
   48  53   0  12  13   0  1  0
   49  53   0  10  13   0  1  0
   50  53   0  12  13   0  1  0
   51  53   0  10  13   0  1  0
   52  53   0  12  13   0  1  0
   53  53   0  10  13   0  1  0
   54  53   0  12  13   0  1  0
   55  53   0  10  13   0  1  0
   56  53   0  12  13   0  1  0
   57  53   0  10  13   0  1  0
   58  53   0  12  13   0  1  0
   59  53   0  10  13   0  1  0
   60  53   0  12  13   0  1  0
   61  53   0  10  13   0  1  0
   62  53   0  12  13   0  1  0
   63  53   0  10  13   0  1  0
   64  53   0  12  13   0  1  0
   65  53   0  10  13   0  1  0
   66  53   0  12  13   0  1  0
   67  53   0  10  13   0  1  0
   68  53   0  12  14   0  1  0
   69  46   0  15  16   0  0  0
   70 18300   0   0   0   0  0  0
   71 350   0   1   1   1  0  0
   72 1161   1   2   2   2  0  0
   73 317   6   0   0   3  0  1
   74  94   0   0   0   4  0  0
   75 2895   0   5   5   5  0  0
   76  95   0   6   6   6  0  0
   77 515   7   0   0   7  0  0
   78  95   0   6   6   6  0  0
   79 1438   0   0   0   0  0  0
   80 1269   0   5   5   5  0  0
   81  46   0   8   9   0  0  0
   82  53   0  10  11   0  1  0
   83  53   0  12  13   0  1  0
   84  53   0  10  13   0  1  0
   85  53   0  12  13   0  1  0
   86  53   0  10  13   0  1  0
   87  53   0  12  13   0  1  0
   88  53   0  10  13   0  1  0
   89  53   0  12  13   0  1  0
   90  53   0  10  13   0  1  0
   91  53   0  12  13   0  1  0
   92  53   0  10  13   0  1  0
   93  53   0  12  13   0  1  0
   94  53   0  10  13   0  1  0
   95  53   0  12  13   0  1  0
   96  53   0  10  13   0  1  0
   97  53   0  12  13   0  1  0
   98  53   0  10  13   0  1  0
   99  53   0  12  13   0  1  0
  100  53   0  10  13   0  1  0
  101  53   0  12  13   0  1  0
  102  53   0  10  13   0  1  0
  103  53   0  12  14   0  1  0
  104  46   0  15  16   0  0  0
  105 18300   0   0   0   0  0  0
  106 350   0   1   1   1  0  0
  107 1161   1   2   2   2  0  0
  108 317   8   0   0   3  0  1
  109  94   0   0   0   4  0  0
  110 2895   0   5   5   5  0  0
  111  95   0   6   6   6  0  0
  112 515   9   0   0   7  0  0
  113  95   0   6   6   6  0  0
  114 1438   0   0   0   0  0  0
  115 1269   0   5   5   5  0  0
  116  46   0   8   9   0  0  0
  117  53   0  10  11   0  1  0
  118  53   0  12  13   0  1  0
  119  53   0  10  13   0  1  0
  120  53   0  12  13   0  1  0
  121  53   0  10  13   0  1  0
  122  53   0  12  13   0  1  0
  123  53   0  10  13   0  1  0
  124  53   0  12  13   0  1  0
  125  53   0  10  13   0  1  0
  126  53   0  12  13   0  1  0
  127  53   0  10  13   0  1  0
  128  53   0  12  13   0  1  0
  129  53   0  10  13   0  1  0
  130  53   0  12  13   0  1  0
  131  53   0  10  13   0  1  0
  132  53   0  12  13   0  1  0
  133  53   0  10  13   0  1  0
  134  53   0  12  13   0  1  0
  135  53   0  10  13   0  1  0
  136  53   0  12  13   0  1  0
  137  53   0  10  13   0  1  0
  138  53   0  12  14   0  1  0
  139  46   0  15  16   0  0  0
  140 18300   0   0   0   0  0  0
  141 350   0   1   1   1  0  0
  142 1161   1   2   2   2  0  0
  143 317  10   0   0   3  0  1
  144  94   0   0   0   4  0  0
  145 2895   0   5   5   5  0  0
  146  95   0   6   6   6  0  0
  147 515  11   0   0   7  0  0
  148  95   0   6   6   6  0  0
  149 1438   0   0   0   0  0  0
  150 1269   0   5   5   5  0  0
  151  46   0   8   9   0  0  0
  152  53   0  10  11   0  1  0
  153  53   0  12  13   0  1  0
  154  53   0  10  13   0  1  0
  155  53   0  12  13   0  1  0
  156  53   0  10  13   0  1  0
  157  53   0  12  13   0  1  0
  158  53   0  10  13   0  1  0
  159  53   0  12  13   0  1  0
  160  53   0  10  13   0  1  0
  161  53   0  12  13   0  1  0
  162  53   0  10  13   0  1  0
  163  53   0  12  13   0  1  0
  164  53   0  10  13   0  1  0
  165  53   0  12  13   0  1  0
  166  53   0  10  13   0  1  0
  167  53   0  12  13   0  1  0
  168  53   0  10  13   0  1  0
  169  53   0  12  13   0  1  0
  170  53   0  10  13   0  1  0
  171  53   0  12  13   0  1  0
  172  53   0  10  13   0  1  0
  173  53   0  12  14   0  1  0
  174  46   0  15  16   0  0  0
  175 18300   0   0   0   0  0  0
  176 350   0   1   1   1  0  0
  177 1161   1   2   2   2  0  0
  178 317  12   0   0   3  0  1
  179  94   0   0   0   4  0  0
  180 2895   0   5   5   5  0  0
  181  95   0   6   6   6  0  0
  182 515  13   0   0   7  0  0
  183  95   0   6   6   6  0  0
  184 1438   0   0   0   0  0  0
  185 1269   0   5   5   5  0  0
  186  46   0   8   9   0  0  0
  187  53   0  10  11   0  1  0
  188  53   0  12  13   0  1  0
  189  53   0  10  13   0  1  0
  190  53   0  12  13   0  1  0
  191  53   0  10  13   0  1  0
  192  53   0  12  13   0  1  0
  193  53   0  10  13   0  1  0
  194  53   0  12  13   0  1  0
  195  53   0  10  13   0  1  0
  196  53   0  12  13   0  1  0
  197  53   0  10  13   0  1  0
  198  53   0  12  13   0  1  0
  199  53   0  10  13   0  1  0
  200  53   0  12  13   0  1  0
  201  53   0  10  13   0  1  0
  202  53   0  12  13   0  1  0
  203  53   0  10  13   0  1  0
  204  53   0  12  13   0  1  0
  205  53   0  10  13   0  1  0
  206  53   0  12  13   0  1  0
  207  53   0  10  13   0  1  0
  208  53   0  12  14   0  1  0
  209  46   0  15  16   0  0  0
  210 18300   0   0   0   0  0  0
  211 350   0   1   1   1  0  0
  212 1161   1   2   2   2  0  0
  213 317  14   0   0   3  0  1
  214  94   0   0   0   4  0  0
  215 2895   0   5   5   5  0  0
  216  95   0   6   6   6  0  0
  217 515  15   0   0   7  0  0
  218  95   0   6   6   6  0  0
  219 1438   0   0   0   0  0  0
  220 1269   0   5   5   5  0  0
  221  46   0   8   9   0  0  0
  222  53   0  10  11   0  1  0
  223  53   0  12  13   0  1  0
  224  53   0  10  13   0  1  0
  225  53   0  12  13   0  1  0
  226  53   0  10  13   0  1  0
  227  53   0  12  13   0  1  0
  228  53   0  10  13   0  1  0
  229  53   0  12  13   0  1  0
  230  53   0  10  13   0  1  0
  231  53   0  12  13   0  1  0
  232  53   0  10  13   0  1  0
  233  53   0  12  13   0  1  0
  234  53   0  10  13   0  1  0
  235  53   0  12  13   0  1  0
  236  53   0  10  13   0  1  0
  237  53   0  12  13   0  1  0
  238  53   0  10  13   0  1  0
  239  53   0  12  13   0  1  0
  240  53   0  10  13   0  1  0
  241  53   0  12  13   0  1  0
  242  53   0  10  13   0  1  0
  243  53   0  12  14   0  1  0
  244  46   0  15  16   0  0  0
  245 18300   0   0   0   0  0  0
  246 350   0   1   1   1  0  0
  247 1161   1   2   2   2  0  0
  248 317  16   0   0   3  0  1
  249  94   0   0   0   4  0  0
  250 2895   0   5   5   5  0  0
  251  95   0   6   6   6  0  0
  252 515  17   0   0   7  0  0
  253  95   0   6   6   6  0  0
  254 1438   0   0   0   0  0  0
  255 1269   0   5   5   5  0  0
  256  46   0   8   9   0  0  0
  257  53   0  10  11   0  1  0
  258  53   0  12  13   0  1  0
  259  53   0  10  13   0  1  0
  260  53   0  12  13   0  1  0
  261  53   0  10  13   0  1  0
  262  53   0  12  13   0  1  0
  263  53   0  10  13   0  1  0
  264  53   0  12  13   0  1  0
  265  53   0  10  13   0  1  0
  266  53   0  12  13   0  1  0
  267  53   0  10  13   0  1  0
  268  53   0  12  13   0  1  0
  269  53   0  10  13   0  1  0
  270  53   0  12  13   0  1  0
  271  53   0  10  13   0  1  0
  272  53   0  12  13   0  1  0
  273  53   0  10  13   0  1  0
  274  53   0  12  13   0  1  0
  275  53   0  10  13   0  1  0
  276  53   0  12  13   0  1  0
  277  53   0  10  13   0  1  0
  278  53   0  12  14   0  1  0
  279  46   0  15  16   0  0  0
  280 18300   0   0   0   0  0  0
  281 350   0   1   1   1  0  0
  282 1161   1   2   2   2  0  0
  283 317  18   0   0   3  0  1
  284  94   0   0   0   4  0  0
  285 2895   0   5   5   5  0  0
  286  95   0   6   6   6  0  0
  287 515  19   0   0   7  0  0
  288  95   0   6   6   6  0  0
  289 1438   0   0   0   0  0  0
  290 1269   0   5   5   5  0  0
  291  46   0   8   9   0  0  0
  292  53   0  10  11   0  1  0
  293  53   0  12  13   0  1  0
  294  53   0  10  13   0  1  0
  295  53   0  12  13   0  1  0
  296  53   0  10  13   0  1  0
  297  53   0  12  13   0  1  0
  298  53   0  10  13   0  1  0
  299  53   0  12  13   0  1  0
  300  53   0  10  13   0  1  0
[RF]
1      129.712 1 2 0 100 -424.504 10.6689
2      329.152 3 4 0 100 -11333.3 0
3      394.982 5 6 0 100 -6800 1.5708
4      329.152 3 4 0 100 666.667 0
5      394.982 5 6 0 100 400 1.5708
6      329.152 3 4 0 100 -10000 0
7      394.982 5 6 0 100 -6000 1.5708
8      329.152 3 4 0 100 2000 0
9      394.982 5 6 0 100 1200 1.5708
10      329.152 3 4 0 100 -8666.67 0
11      394.982 5 6 0 100 -5200 1.5708
12      329.152 3 4 0 100 3333.33 0
13      394.982 5 6 0 100 2000 1.5708
14      329.152 3 4 0 100 -7333.33 0
15      394.982 5 6 0 100 -4400 1.5708
16      329.152 3 4 0 100 4666.67 0
17      394.982 5 6 0 100 2800 1.5708
18      329.152 3 4 0 100 -6000 0
19      394.982 5 6 0 100 -3600 1.5708

# Format of arbitrary gradients:
#   time_shape_id of 0 means default timing (stepping with grad_raster starting at 1/2 of grad_raster)
# id amplitude amp_shape_id time_shape_id delay
# ..      Hz/m       ..         ..          us
[GRADIENTS]
11            0 7 8 480
13            0 9 10 0
14            0 11 12 0
18      -194805 13 8 480
19      -194805 14 10 0
20      -194805 15 12 0
23       194805 13 8 480
24       194805 14 10 0
25       194805 15 12 0

# Format of trapezoid gradients:
# id amplitude rise flat fall delay
# ..      Hz/m   us   us   us    us
[TRAP]
 1  1.02192e+06 500 2500 500   0
 2 -1.02192e+06 500 2500 500 8110
 3       533333  70 3000  70  30
 4 -1.74184e+06 470    0 470   0
 5            0  10 11910  10   0
 6       811149 110  730 110   0
 7       320000  50 5000  50  50
 8      -909454 230    0 230   0
 9            0  60  340  60   0
10  1.10092e+06 150  230 150   0
12 -1.10092e+06 150  230 150   0
15       909454 230    0 230   0
16            0 150  160 150   0
17       238636  60  340  60   0
21       615836 150  160 150   0
22      -238636  60  340  60   0
26      -615836 150  160 150   0
27       215665 440 12420 440   0
28            0 440 12420 440   0
29 -1.85831e+06 440 12420 440   0
30       252052 440 12420 440   0
31      -505469 440 12420 440   0
32 -1.78348e+06 440 12420 440   0
33      47134.6 440 12420 440   0
34       760346 440 12420 440   0
35 -1.70865e+06 440 12420 440   0
36      -839668 440 12420 440   0
37      -354160 440 12420 440   0
38 -1.63382e+06 440 12420 440   0
39       549451 440 12420 440   0
40      -876073 440 12420 440   0
41 -1.55899e+06 440 12420 440   0
42       981491 440 12420 440   0
43       577756 440 12420 440   0
44 -1.48415e+06 440 12420 440   0
45      -446724 440 12420 440   0
46  1.14634e+06 440 12420 440   0
47 -1.40932e+06 440 12420 440   0
48 -1.30278e+06 440 12420 440   0
49      -147361 440 12420 440   0
50 -1.33449e+06 440 12420 440   0
51      -305650 440 12420 440   0
52 -1.34895e+06 440 12420 440   0
53 -1.25966e+06 440 12420 440   0
54  1.17879e+06 440 12420 440   0
55      -840528 440 12420 440   0
56 -1.18483e+06 440 12420 440   0
57  1.31809e+06 440 12420 440   0
58       728281 440 12420 440   0
59    -1.11e+06 440 12420 440   0
60       -26062 440 12420 440   0
61  1.55807e+06 440 12420 440   0
62 -1.03517e+06 440 12420 440   0
63 -1.40417e+06 440 12420 440   0
64       778396 440 12420 440   0
65      -960330 440 12420 440   0
66 -1.43644e+06 440 12420 440   0
67      -807691 440 12420 440   0
68      -885497 440 12420 440   0
69      -110036 440 12420 440   0
70 -1.68242e+06 440 12420 440   0
71      -810670 440 12420 440   0
72  1.35421e+06 440 12420 440   0
73 -1.06042e+06 440 12420 440   0
74      -735839 440 12420 440   0
75  1.67748e+06 440 12420 440   0
76       498959 440 12420 440   0
77      -661007 440 12420 440   0
78       599027 440 12420 440   0
79  1.67254e+06 440 12420 440   0
80      -586175 440 12420 440   0
81      -987026 440 12420 440   0
82  1.50471e+06 440 12420 440   0
83      -511341 440 12420 440   0
84 -1.81376e+06 440 12420 440   0
85       139847 440 12420 440   0
86      -436510 440 12420 440   0
87 -1.24269e+06 440 12420 440   0
88 -1.35084e+06 440 12420 440   0
89      -361678 440 12420 440   0
90       281385 440 12420 440   0
91 -1.82712e+06 440 12420 440   0
92      -286848 440 12420 440   0
93  1.60621e+06 440 12420 440   0
94      -935399 440 12420 440   0
95      -212018 440 12420 440   0
96  1.74683e+06 440 12420 440   0
97       655448 440 12420 440   0
98      -137190 440 12420 440   0
99       603010 440 12420 440   0
100  1.76984e+06 440 12420 440   0
101     -62358.9 440 12420 440   0
102      -436962 630 12230 630   0
103       293672 630 12230 630   0
104 -2.59278e+06 630 12230 630   0
105       894480 630 12230 630   0
106      -121180 630 12230 630   0
107 -2.48695e+06 630 12230 630   0
108      -706982 630 12230 630   0
109       911098 630 12230 630   0
110 -2.38112e+06 630 12230 630   0
111      -726559 630 12230 630   0
112 -1.13791e+06 630 12230 630   0
113 -2.27529e+06 630 12230 630   0
114  1.34396e+06 630 12230 630   0
115      -697773 630 12230 630   0
116 -2.16946e+06 630 12230 630   0
117       873739 630 12230 630   0
118  1.40629e+06 630 12230 630   0
119 -2.06364e+06 630 12230 630   0
120 -1.29932e+06 630 12230 630   0
121   1.2159e+06 630 12230 630   0
122 -1.95781e+06 630 12230 630   0
123 -1.62823e+06 630 12230 630   0
124      -958503 630 12230 630   0
125 -1.85198e+06 630 12230 630   0
126       345581 630 12230 630   0
127 -1.95734e+06 630 12230 630   0
128 -1.74616e+06 630 12230 630   0
129  2.01651e+06 630 12230 630   0
130      -492626 630 12230 630   0
131 -1.64032e+06 630 12230 630   0
132  1.38983e+06 630 12230 630   0
133  1.64723e+06 630 12230 630   0
134  -1.5345e+06 630 12230 630   0
135      -804420 630 12230 630   0
136  2.07641e+06 630 12230 630   0
137 -1.42867e+06 630 12230 630   0
138 -2.26062e+06 630 12230 630   0
139       373308 630 12230 630   0
140 -1.32285e+06 630 12230 630   0
141 -1.55761e+06 630 12230 630   0
142 -1.75852e+06 630 12230 630   0
143 -1.21702e+06 630 12230 630   0
144       619196 630 12230 630   0
145 -2.31981e+06 630 12230 630   0
146 -1.11119e+06 630 12230 630   0
147  2.30334e+06 630 12230 630   0
148      -826754 630 12230 630   0
149 -1.00537e+06 630 12230 630   0
150  2.04883e+06 630 12230 630   0
151  1.41167e+06 630 12230 630   0
152      -899538 630 12230 630   0
153      86794.9 630 12230 630   0
154  2.52233e+06 630 12230 630   0
155      -793711 630 12230 630   0
156 -1.97894e+06 630 12230 630   0
157  1.61564e+06 630 12230 630   0
158      -687877 630 12230 630   0
159 -2.51562e+06 630 12230 630   0
160      -576654 630 12230 630   0
161      -582051 630 12230 630   0
162  -1.1182e+06 630 12230 630   0
163    -2.35e+06 630 12230 630   0
164      -476223 630 12230 630   0
165  1.14005e+06 630 12230 630   0
166 -2.35855e+06 630 12230 630   0
167      -370396 630 12230 630   0
168   2.5622e+06 630 12230 630   0
169      -603987 630 12230 630   0
170      -264570 630 12230 630   0
171  2.09647e+06 630 12230 630   0
172  1.60601e+06 630 12230 630   0
173      -158741 630 12230 630   0
174      90636.3 630 12230 630   0
175  2.64361e+06 630 12230 630   0
176       -52914 630 12230 630   0
177      -525185 770 12090 770   0
178      -642256 770 12090 770   0
179 -3.13228e+06 770 12090 770   0
180       910131 770 12090 770   0
181       809391 770 12090 770   0
182 -3.00268e+06 770 12090 770   0
183 -1.45661e+06 770 12090 770   0
184       351118 770 12090 770   0
185 -2.87307e+06 770 12090 770   0
186      13404.1 770 12090 770   0
187 -1.72419e+06 770 12090 770   0
188 -2.74345e+06 770 12090 770   0
189  1.91388e+06 770 12090 770   0
190        66387 770 12090 770   0
191 -2.61384e+06 770 12090 770   0
192       179165 770 12090 770   0
193  2.07268e+06 770 12090 770   0
194 -2.48423e+06 770 12090 770   0
195 -2.11636e+06 770 12090 770   0
196       690148 770 12090 770   0
197 -2.35462e+06 770 12090 770   0
198 -1.38237e+06 770 12090 770   0
199 -1.90733e+06 770 12090 770   0
200 -2.22501e+06 770 12090 770   0
201  1.32544e+06 770 12090 770   0
202 -2.08616e+06 770 12090 770   0
203 -2.09539e+06 770 12090 770   0
204  2.55244e+06 770 12090 770   0
205       346776 770 12090 770   0
206 -1.96579e+06 770 12090 770   0
207       890403 770 12090 770   0
208  2.51697e+06 770 12090 770   0
209 -1.83618e+06 770 12090 770   0
210 -1.81387e+06 770 12090 770   0
211  2.07293e+06 770 12090 770   0
212 -1.70655e+06 770 12090 770   0
213 -2.78707e+06 770 12090 770   0
214      -494923 770 12090 770   0
215 -1.57695e+06 770 12090 770   0
216 -1.11249e+06 770 12090 770   0
217 -2.67714e+06 770 12090 770   0
218 -1.44735e+06 770 12090 770   0
219  1.63398e+06 770 12090 770   0
220 -2.46845e+06 770 12090 770   0
221 -1.31773e+06 770 12090 770   0
222  3.01353e+06 770 12090 770   0
223     -80887.2 770 12090 770   0
224 -1.18811e+06 770 12090 770   0
225  1.86537e+06 770 12090 770   0
226  2.42889e+06 770 12090 770   0
227  -1.0585e+06 770 12090 770   0
228      -839172 770 12090 770   0
229  2.98872e+06 770 12090 770   0
230      -928896 770 12090 770   0
231 -2.91585e+06 770 12090 770   0
232  1.16554e+06 770 12090 770   0
233      -799285 770 12090 770   0
234 -2.74074e+06 770 12090 770   0
235 -1.59355e+06 770 12090 770   0
236      -669672 770 12090 770   0
237      -462618 770 12090 770   0
238  -3.1613e+06 770 12090 770   0
239      -540061 770 12090 770   0
240  2.18413e+06 770 12090 770   0
241  -2.3581e+06 770 12090 770   0
242      -410449 770 12090 770   0
243  3.22151e+06 770 12090 770   0
244       206174 770 12090 770   0
245      -280828 770 12090 770   0
246   1.8876e+06 770 12090 770   0
247  2.62937e+06 770 12090 770   0
248      -151215 770 12090 770   0
249      -832139 770 12090 770   0
250  3.13155e+06 770 12090 770   0
251     -21602.1 770 12090 770   0

# Format of ADC events:
# id num dwell delay freq phase
# ..  ..    ns    us   Hz   rad
[ADC]
1 212 2000 53 0 0

# Format of extension lists:
# id type ref next_id
# next_id of 0 terminates the list
# Extension list is followed by extension specifications
[EXTENSIONS]
1 1 1 0

# Extension specification for digital output and input triggers:
# id type channel delay (us) duration (us)
extension TRIGGERS 1
1 1 1 0 100

# Sequence Shapes
[SHAPES]

shape_id 1
num_samples 8000
0.00011671692
0.000117246598
0.000117778547
0.000118312775
0.000118849292
0.000119388107
0.000119929229
0.000120472667
0.00012101843
0.000121566528
0.00012211697
0.000122669766
0.000123224925
0.000123782455
0.000124342368
0.000124904672
0.000125469377
0.000126036492
0.000126606027
0.000127177991
0.000127752395
0.000128329248
0.00012890856
0.00012949034
0.000130074599
0.000130661345
0.00013125059
0.000131842343
0.000132436615
0.000133033414
0.000133632751
0.000134234636
0.000134839079
0.000135446091
0.000136055681
0.000136667861
0.000137282639
0.000137900026
0.000138520034
0.000139142671
0.000139767949
0.000140395877
0.000141026467
0.000141659729
0.000142295674
0.000142934311
0.000143575652
0.000144219708
0.000144866489
0.000145516005
0.000146168268
0.000146823289
0.000147481078
0.000148141646
0.000148805005
0.000149471164
0.000150140136
0.000150811931
0.000151486561
0.000152164036
0.000152844368
0.000153527567
0.000154213646
0.000154902616
0.000155594487
0.000156289272
0.000156986981
0.000157687627
0.00015839122
0.000159097773
0.000159807296
0.000160519802
0.000161235302
0.000161953808
0.000162675332
0.000163399885
0.000164127479
0.000164858127
0.000165591839
0.000166328629
0.000167068508
0.000167811488
0.000168557582
0.000169306801
0.000170059157
0.000170814664
0.000171573332
0.000172335175
0.000173100205
0.000173868435
0.000174639875
0.00017541454
0.000176192442
0.000176973594
0.000177758007
0.000178545694
0.00017933667
0.000180130945
0.000180928533
0.000181729447
0.0001825337
0.000183341305
0.000184152274
0.000184966621
0.000185784359
0.0001866055
0.000187430059
0.000188258048
0.000189089481
0.00018992437
0.00019076273
0.000191604574
0.000192449915
0.000193298766
0.000194151142
0.000195007056
0.000195866521
0.000196729551
0.000197596161
0.000198466363
0.000199340172
0.000200217601
0.000201098665
0.000201983377
0.000202871752
0.000203763803
0.000204659545
0.000205558992
0.000206462158
0.000207369058
0.000208279705
0.000209194114
0.000210112301
0.000211034278
0.000211960061
0.000212889664
0.000213823102
0.00021476039
0.000215701542
0.000216646573
0.000217595498
0.000218548332
0.00021950509
0.000220465787
0.000221430438
0.000222399058
0.000223371661
0.000224348265
0.000225328883
0.000226313531
0.000227302224
0.000228294978
0.000229291809
0.000230292731
0.000231297761
0.000232306914
0.000233320205
0.000234337651
0.000235359268
0.00023638507
0.000237415075
0.000238449298
0.000239487755
0.000240530462
0.000241577435
0.000242628691
0.000243684245
0.000244744115
0.000245808316
0.000246876865
0.000247949779
0.000249027073
0.000250108764
0.00025119487
0.000252285407
0.000253380391
0.000254479839
0.000255583769
0.000256692197
0.00025780514
0.000258922615
0.00026004464
0.000261171231
0.000262302406
0.000263438182
0.000264578576
0.000265723606
0.000266873289
0.000268027644
0.000269186686
0.000270350434
0.000271518906
0.00027269212
0.000273870093
0.000275052843
0.000276240388
0.000277432746
0.000278629935
0.000279831974
0.00028103888
0.000282250672
0.000283467369
0.000284688987
0.000285915547
0.000287147065
0.000288383562
0.000289625056
0.000290871565
0.000292123107
0.000293379703
0.00029464137
0.000295908129
0.000297179997
0.000298456993
0.000299739138
0.00030102645
0.000302318948
0.000303616652
0.000304919581
0.000306227754
0.000307541192
0.000308859914
0.000310183939
0.000311513287
0.000312847978
0.000314188031
0.000315533468
0.000316884307
0.000318240569
0.000319602274
0.000320969442
0.000322342094
0.000323720249
0.000325103928
0.000326493152
0.000327887941
0.000329288316
0.000330694297
0.000332105906
0.000333523162
0.000334946087
0.000336374702
0.000337809028
0.000339249086
0.000340694897
0.000342146483
0.000343603864
0.000345067062
0.000346536098
0.000348010995
0.000349491773
0.000350978455
0.000352471061
0.000353969614
0.000355474136
0.000356984649
0.000358501175
0.000360023735
0.000361552352
0.000363087048
0.000364627846
0.000366174768
0.000367727836
0.000369287073
0.000370852502
0.000372424145
0.000374002025
0.000375586165
0.000377176588
0.000378773316
0.000380376374
0.000381985783
0.000383601568
0.000385223751
0.000386852356
0.000388487407
0.000390128926
0.000391776938
0.000393431466
0.000395092534
0.000396760165
0.000398434385
0.000400115216
0.000401802683
0.00040349681
0.000405197621
0.000406905141
0.000408619393
0.000410340403
0.000412068195
0.000413802794
0.000415544223
0.000417292509
0.000419047676
0.000420809748
0.000422578752
0.000424354712
0.000426137653
0.0004279276
0.00042972458
0.000431528616
0.000433339736
0.000435157964
0.000436983327
0.000438815849
0.000440655558
0.000442502478
0.000444356636
0.000446218058
0.000448086771
0.0004499628
0.000451846171
0.000453736912
0.000455635049
0.000457540609
0.000459453617
0.000461374102
0.000463302089
0.000465237607
0.000467180681
0.00046913134
0.00047108961
0.000473055518
0.000475029093
0.000477010361
0.000478999351
0.000480996089
0.000483000604
0.000485012924
0.000487033076
0.000489061088
0.000491096989
0.000493140807
0.00049519257
0.000497252307
0.000499320045
0.000501395815
0.000503479643
0.00050557156
0.000507671594
0.000509779773
0.000511896128
0.000514020686
0.000516153478
0.000518294532
0.000520443879
0.000522601547
0.000524767566
0.000526941966
0.000529124776
0.000531316027
0.000533515749
0.000535723971
0.000537940724
0.000540166038
0.000542399943
0.00054464247
0.00054689365
0.000549153512
0.000551422088
0.00055369941
0.000555985506
0.000558280409
0.000560584151
0.000562896761
0.000565218271
0.000567548713
0.000569888119
0.00057223652
0.000574593947
0.000576960433
0.00057933601
0.000581720709
0.000584114562
0.000586517603
0.000588929863
0.000591351374
0.00059378217
0.000596222283
0.000598671745
0.00060113059
0.00060359885
0.000606076559
0.00060856375
0.000611060455
0.000613566709
0.000616082544
0.000618607995
0.000621143095
0.000623687878
0.000626242378
0.000628806628
0.000631380663
0.000633964518
0.000636558225
0.000639161821
0.000641775339
0.000644398813
0.00064703228
0.000649675773
0.000652329328
0.000654992979
0.000657666762
0.000660350713
0.000663044866
0.000665749256
0.000668463921
0.000671188895
0.000673924214
0.000676669914
0.000679426032
0.000682192603
0.000684969663
0.00068775725
0.000690555399
0.000693364148
0.000696183533
0.00069901359
0.000701854357
0.000704705871
0.000707568169
0.000710441289
0.000713325267
0.000716220142
0.000719125951
0.000722042731
0.000724970521
0.000727909359
0.000730859282
0.000733820329
0.000736792539
0.00073977595
0.0007427706
0.000745776528
0.000748793772
0.000751822373
0.000754862369
0.000757913798
0.000760976702
0.000764051117
0.000767137086
0.000770234646
0.000773343838
0.000776464701
0.000779597277
0.000782741604
0.000785897723
0.000789065675
0.000792245499
0.000795437238
0.00079864093
0.000801856618
0.000805084342
0.000808324144
0.000811576064
0.000814840144
0.000818116426
0.000821404951
0.00082470576
0.000828018897
0.000831344402
0.000834682318
0.000838032687
0.000841395552
0.000844770954
0.000848158938
0.000851559545
0.000854972818
0.0008583988
0.000861837535
0.000865289066
0.000868753436
0.000872230689
0.000875720869
0.000879224018
0.000882740182
0.000886269404
0.000889811728
0.000893367199
0.000896935862
0.00090051776
0.000904112939
0.000907721443
0.000911343318
0.000914978608
0.000918627359
0.000922289616
0.000925965425
0.000929654832
0.000933357881
0.00093707462
0.000940805094
0.00094454935
0.000948307433
0.000952079391
0.00095586527
0.000959665116
0.000963478977
0.0009673069
0.000971148931
0.000975005119
0.00097887551
0.000982760152
0.000986659094
0.000990572382
0.000994500065
0.000998442191
0.00100239881
0.00100636997
0.00101035571
0.00101435609
0.00101837116
0.00102240097
0.00102644555
0.00103050498
0.00103457928
0.00103866852
0.00104277274
0.00104689199
0.00105102632
0.00105517579
0.00105934043
0.00106352032
0.00106771548
0.00107192598
0.00107615187
0.00108039319
0.00108465
0.00108892235
0.00109321029
0.00109751387
0.00110183315
0.00110616817
0.00111051899
0.00111488566
0.00111926823
0.00112366676
0.0011280813
0.0011325119
0.00113695861
0.00114142149
0.00114590059
0.00115039596
0.00115490767
0.00115943575
0.00116398027
0.00116854128
0.00117311883
0.00117771298
0.00118232379
0.0011869513
0.00119159557
0.00119625666
0.00120093463
0.00120562952
0.00121034139
0.00121507031
0.00121981632
0.00122457948
0.00122935985
0.00123415748
0.00123897244
0.00124380477
0.00124865453
0.00125352178
0.00125840658
0.00126330899
0.00126822906
0.00127316685
0.00127812241
0.00128309582
0.00128808711
0.00129309636
0.00129812362
0.00130316895
0.00130823241
0.00131331405
0.00131841394
0.00132353214
0.0013286687
0.00133382368
0.00133899715
0.00134418917
0.00134939978
0.00135462907
0.00135987707
0.00136514387
0.00137042951
0.00137573405
0.00138105757
0.00138640012
0.00139176175
0.00139714255
0.00140254255
0.00140796183
0.00141340046
0.00141885848
0.00142433597
0.00142983298
0.00143534959
0.00144088585
0.00144644182
0.00145201757
0.00145761317
0.00146322867
0.00146886414
0.00147451965
0.00148019526
0.00148589103
0.00149160703
0.00149734332
0.00150309998
0.00150887705
0.00151467461
0.00152049273
0.00152633147
0.00153219089
0.00153807107
0.00154397207
0.00154989395
0.00155583678
0.00156180063
0.00156778556
0.00157379165
0.00157981896
0.00158586756
0.00159193751
0.00159802889
0.00160414175
0.00161027618
0.00161643224
0.00162260999
0.00162880951
0.00163503086
0.00164127412
0.00164753936
0.00165382663
0.00166013602
0.0016664676
0.00167282143
0.00167919758
0.00168559613
0.00169201714
0.00169846069
0.00170492685
0.00171141568
0.00171792727
0.00172446168
0.00173101899
0.00173759926
0.00174420257
0.001750829
0.0017574786
0.00176415147
0.00177084767
0.00177756727
0.00178431035
0.00179107698
0.00179786723
0.00180468119
0.00181151891
0.00181838049
0.00182526599
0.00183217549
0.00183910906
0.00184606678
0.00185304873
0.00186005497
0.0018670856
0.00187414067
0.00188122027
0.00188832448
0.00189545337
0.00190260702
