# Pulseq sequence file
# Created by MATLAB mr toolbox

[VERSION]
major 1
minor 4
revision 1

[DEFINITIONS]
AdcRasterTime 2e-06 
BlockDurationRaster 1e-05 
FOV 0.24 0.24 0.003 
GradientRasterTime 1e-05 
Name gre2d 
RadiofrequencyRasterTime 1e-06 
TotalDuration 3.72 

# Format of blocks:
# NUM DUR RF  GX  GY  GZ  ADC  EXT
[BLOCKS]
   1 332   1   0   0   1  0  1
   2 100   0   2   3   4  0  0
   3 119   0   0   0   0  0  0
   4 230   0   5   0   0  0  0
   5 178   0   6   7   8  0  0
   6 241   0   0   0   0  0  0
   7 332   2   0   0   1  0  1
   8 100   0   2   3   4  0  0
   9 119   0   0   0   0  0  0
  10 230   0   5   0   0  0  0
  11 178   0   6   7   8  0  0
  12 241   0   0   0   0  0  0
  13 332   3   0   0   1  0  1
  14 100   0   2   3   4  0  0
  15 119   0   0   0   0  0  0
  16 230   0   5   0   0  0  0
  17 178   0   6   7   8  0  0
  18 241   0   0   0   0  0  0
  19 332   4   0   0   1  0  1
  20 100   0   2   3   4  0  0
  21 119   0   0   0   0  0  0
  22 230   0   5   0   0  0  0
  23 178   0   6   7   8  0  0
  24 241   0   0   0   0  0  0
  25 332   5   0   0   1  0  1
  26 100   0   2   3   4  0  0
  27 119   0   0   0   0  0  0
  28 230   0   5   0   0  0  0
  29 178   0   6   7   8  0  0
  30 241   0   0   0   0  0  0
  31 332   6   0   0   1  0  1
  32 100   0   2   3   4  0  0
  33 119   0   0   0   0  0  0
  34 230   0   5   0   0  0  0
  35 178   0   6   7   8  0  0
  36 241   0   0   0   0  0  0
  37 332   7   0   0   1  0  1
  38 100   0   2   3   4  0  0
  39 119   0   0   0   0  0  0
  40 230   0   5   0   0  0  0
  41 178   0   6   7   8  0  0
  42 241   0   0   0   0  0  0
  43 332   8   0   0   1  0  1
  44 100   0   2   3   4  0  0
  45 119   0   0   0   0  0  0
  46 230   0   5   0   0  0  0
  47 178   0   6   7   8  0  0
  48 241   0   0   0   0  0  0
  49 332   9   0   0   1  0  1
  50 100   0   2   3   4  0  0
  51 119   0   0   0   0  0  0
  52 230   0   5   0   0  0  0
  53 178   0   6   7   8  0  0
  54 241   0   0   0   0  0  0
  55 332  10   0   0   1  0  1
  56 100   0   2   3   4  0  0
  57 119   0   0   0   0  0  0
  58 230   0   5   0   0  0  0
  59 178   0   6   7   8  0  0
  60 241   0   0   0   0  0  0
  61 332   6   0   0   1  0  1
  62 100   0   2   3   4  0  0
  63 119   0   0   0   0  0  0
  64 230   0   5   0   0  0  0
  65 178   0   6   7   8  0  0
  66 241   0   0   0   0  0  0
  67 332  11   0   0   1  0  1
  68 100   0   2   3   4  0  0
  69 119   0   0   0   0  0  0
  70 230   0   5   0   0  0  0
  71 178   0   6   7   8  0  0
  72 241   0   0   0   0  0  0
  73 332  12   0   0   1  0  1
  74 100   0   2   3   4  0  0
  75 119   0   0   0   0  0  0
  76 230   0   5   0   0  0  0
  77 178   0   6   7   8  0  0
  78 241   0   0   0   0  0  0
  79 332  13   0   0   1  0  1
  80 100   0   2   3   4  0  0
  81 119   0   0   0   0  0  0
  82 230   0   5   0   0  0  0
  83 178   0   6   7   8  0  0
  84 241   0   0   0   0  0  0
  85 332  14   0   0   1  0  1
  86 100   0   2   3   4  0  0
  87 119   0   0   0   0  0  0
  88 230   0   5   0   0  0  0
  89 178   0   6   7   8  0  0
  90 241   0   0   0   0  0  0
  91 332   1   0   0   1  0  1
  92 100   0   2   3   4  0  0
  93 119   0   0   0   0  0  0
  94 230   0   5   0   0  0  0
  95 178   0   6   7   8  0  0
  96 241   0   0   0   0  0  0
  97 332  15   0   0   1  0  1
  98 100   0   2   3   4  0  0
  99 119   0   0   0   0  0  0
 100 230   0   5   0   0  0  0
 101 178   0   6   7   8  0  0
 102 241   0   0   0   0  0  0
 103 332  16   0   0   1  0  1
 104 100   0   2   3   4  0  0
 105 119   0   0   0   0  0  0
 106 230   0   5   0   0  0  0
 107 178   0   6   7   8  0  0
 108 241   0   0   0   0  0  0
 109 332  13   0   0   1  0  1
 110 100   0   2   3   4  0  0
 111 119   0   0   0   0  0  0
 112 230   0   5   0   0  0  0
 113 178   0   6   7   8  0  0
 114 241   0   0   0   0  0  0
 115 332  17   0   0   1  0  1
 116 100   0   2   3   4  0  0
 117 119   0   0   0   0  0  0
 118 230   0   5   0   0  0  0
 119 178   0   6   7   8  0  0
 120 241   0   0   0   0  0  0
 121 332   5   0   0   1  0  1
 122 100   0   2   3   4  0  0
 123 119   0   0   0   0  0  0
 124 230   0   5   0   0  0  0
 125 178   0   6   7   8  0  0
 126 241   0   0   0   0  0  0
 127 332  18   0   0   1  0  1
 128 100   0   2   3   4  0  0
 129 119   0   0   0   0  0  0
 130 230   0   5   0   0  0  0
 131 178   0   6   7   8  0  0
 132 241   0   0   0   0  0  0
 133 332  19   0   0   1  0  1
 134 100   0   2   3   4  0  0
 135 119   0   0   0   0  0  0
 136 230   0   5   0   0  0  0
 137 178   0   6   7   8  0  0
 138 241   0   0   0   0  0  0
 139 332   9   0   0   1  0  1
 140 100   0   2   3   4  0  0
 141 119   0   0   0   0  0  0
 142 230   0   5   0   0  0  0
 143 178   0   6   7   8  0  0
 144 241   0   0   0   0  0  0
 145 332  20   0   0   1  0  1
 146 100   0   2   3   4  0  0
 147 119   0   0   0   0  0  0
 148 230   0   5   0   0  0  0
 149 178   0   6   7   8  0  0
 150 241   0   0   0   0  0  0
 151 332  10   0   0   1  0  1
 152 100   0   2   3   4  0  0
 153 119   0   0   0   0  0  0
 154 230   0   5   0   0  0  0
 155 178   0   6   7   8  0  0
 156 241   0   0   0   0  0  0
 157 332  18   0   0   1  0  1
 158 100   0   2   3   4  0  0
 159 119   0   0   0   0  0  0
 160 230   0   5   0   0  0  0
 161 178   0   6   7   8  0  0
 162 241   0   0   0   0  0  0
 163 332  21   0   0   1  0  1
 164 100   0   2   3   4  0  0
 165 119   0   0   0   0  0  0
 166 230   0   5   0   0  0  0
 167 178   0   6   7   8  0  0
 168 241   0   0   0   0  0  0
 169 332   4   0   0   1  0  1
 170 100   0   2   3   4  0  0
 171 119   0   0   0   0  0  0
 172 230   0   5   0   0  0  0
 173 178   0   6   7   8  0  0
 174 241   0   0   0   0  0  0
 175 332  22   0   0   1  0  1
 176 100   0   2   3   4  0  0
 177 119   0   0   0   0  0  0
 178 230   0   5   0   0  0  0
 179 178   0   6   7   8  0  0
 180 241   0   0   0   0  0  0
 181 332  14   0   0   1  0  1
 182 100   0   2   3   4  0  0
 183 119   0   0   0   0  0  0
 184 230   0   5   0   0  0  0
 185 178   0   6   7   8  0  0
 186 241   0   0   0   0  0  0
 187 332  15   0   0   1  0  1
 188 100   0   2   3   4  0  0
 189 119   0   0   0   0  0  0
 190 230   0   5   0   0  0  0
 191 178   0   6   7   8  0  0
 192 241   0   0   0   0  0  0
 193 332  23   0   0   1  0  1
 194 100   0   2   3   4  0  0
 195 119   0   0   0   0  0  0
 196 230   0   5   0   0  0  0
 197 178   0   6   7   8  0  0
 198 241   0   0   0   0  0  0
 199 332   2   0   0   1  0  1
 200 100   0   2   3   4  0  0
 201 119   0   0   0   0  0  0
 202 230   0   5   0   0  0  0
 203 178   0   6   7   8  0  0
 204 241   0   0   0   0  0  0
 205 332  22   0   0   1  0  1
 206 100   0   2   3   4  0  0
 207 119   0   0   0   0  0  0
 208 230   0   5   0   0  0  0
 209 178   0   6   7   8  0  0
 210 241   0   0   0   0  0  0
 211 332  17   0   0   1  0  1
 212 100   0   2   3   4  0  0
 213 119   0   0   0   0  0  0
 214 230   0   5   0   0  0  0
 215 178   0   6   7   8  0  0
 216 241   0   0   0   0  0  0
 217 332  11   0   0   1  0  1
 218 100   0   2   3   4  0  0
 219 119   0   0   0   0  0  0
 220 230   0   5   0   0  0  0
 221 178   0   6   7   8  0  0
 222 241   0   0   0   0  0  0
 223 332  24   0   0   1  0  1
 224 100   0   2   3   4  0  0
 225 119   0   0   0   0  0  0
 226 230   0   5   0   0  0  0
 227 178   0   6   7   8  0  0
 228 241   0   0   0   0  0  0
 229 332   7   0   0   1  0  1
 230 100   0   2   3   4  0  0
 231 119   0   0   0   0  0  0
 232 230   0   5   0   0  0  0
 233 178   0   6   7   8  0  0
 234 241   0   0   0   0  0  0
 235 332  20   0   0   1  0  1
 236 100   0   2   3   4  0  0
 237 119   0   0   0   0  0  0
 238 230   0   5   0   0  0  0
 239 178   0   6   7   8  0  0
 240 241   0   0   0   0  0  0
 241 332  20   0   0   1  0  1
 242 100   0   2   3   4  0  0
 243 119   0   0   0   0  0  0
 244 230   0   5   0   0  0  0
 245 178   0   6   7   8  0  0
 246 241   0   0   0   0  0  0
 247 332   7   0   0   1  0  1
 248 100   0   2   3   4  0  0
 249 119   0   0   0   0  0  0
 250 230   0   5   0   0  0  0
 251 178   0   6   7   8  0  0
 252 241   0   0   0   0  0  0
 253 332  24   0   0   1  0  1
 254 100   0   2   3   4  0  0
 255 119   0   0   0   0  0  0
 256 230   0   5   0   0  0  0
 257 178   0   6   7   8  0  0
 258 241   0   0   0   0  0  0
 259 332  11   0   0   1  0  1
 260 100   0   2   3   4  0  0
 261 119   0   0   0   0  0  0
 262 230   0   5   0   0  0  0
 263 178   0   6   7   8  0  0
 264 241   0   0   0   0  0  0
 265 332  17   0   0   1  0  1
 266 100   0   2   3   4  0  0
 267 119   0   0   0   0  0  0
 268 230   0   5   0   0  0  0
 269 178   0   6   7   8  0  0
 270 241   0   0   0   0  0  0
 271 332  22   0   0   1  0  1
 272 100   0   2   3   4  0  0
 273 119   0   0   0   0  0  0
 274 230   0   5   0   0  0  0
 275 178   0   6   7   8  0  0
 276 241   0   0   0   0  0  0
 277 332   2   0   0   1  0  1
 278 100   0   2   3   4  0  0
 279 119   0   0   0   0  0  0
 280 230   0   5   0   0  0  0
 281 178   0   6   7   8  0  0
 282 241   0   0   0   0  0  0
 283 332  23   0   0   1  0  1
 284 100   0   2   3   4  0  0
 285 119   0   0   0   0  0  0
 286 230   0   5   0   0  0  0
 287 178   0   6   7   8  0  0
 288 241   0   0   0   0  0  0
 289 332  15   0   0   1  0  1
 290 100   0   2   3   4  0  0
 291 119   0   0   0   0  0  0
 292 230   0   5   0   0  0  0
 293 178   0   6   7   8  0  0
 294 241   0   0   0   0  0  0
 295 332  14   0   0   1  0  1
 296 100   0   2   3   4  0  0
 297 119   0   0   0   0  0  0
 298 230   0   5   0   0  0  0
 299 178   0   6   7   8  0  0
 300 241   0   0   0   0  0  0
 301 332  22   0   0   1  0  1
 302 100   0   2   3   4  0  0
 303 119   0   0   0   0  0  0
 304 230   0   5   0   0  0  0
 305 178   0   6   7   8  0  0
 306 241   0   0   0   0  0  0
 307 332   4   0   0   1  0  1
 308 100   0   2   3   4  0  0
 309 119   0   0   0   0  0  0
 310 230   0   5   0   0  0  0
 311 178   0   6   7   8  0  0
[RF]
1      22.3311 1 2 0 160 0 0
2      22.3311 1 2 0 160 0 2.04204
3      22.3311 1 2 0 160 0 6.12611
4      22.3311 1 2 0 160 0 5.96903
5      22.3311 1 2 0 160 0 1.5708
6      22.3311 1 2 0 160 0 5.49779
7      22.3311 1 2 0 160 0 5.18363
8      22.3311 1 2 0 160 0 0.628319
9      22.3311 1 2 0 160 0 4.39823
10      22.3311 1 2 0 160 0 3.92699
11      22.3311 1 2 0 160 0 2.82743
12      22.3311 1 2 0 160 0 2.19911
13      22.3311 1 2 0 160 0 3.61283
14      22.3311 1 2 0 160 0 0.785398
15      22.3311 1 2 0 160 0 1.25664
16      22.3311 1 2 0 160 0 4.55531
17      22.3311 1 2 0 160 0 4.71239
18      22.3311 1 2 0 160 0 0.471239
19      22.3311 1 2 0 160 0 1.41372
20      22.3311 1 2 0 160 0 3.14159
21      22.3311 1 2 0 160 0 5.34071
22      22.3311 1 2 0 160 0 2.35619
23      22.3311 1 2 0 160 0 3.76991
24      22.3311 1 2 0 160 0 2.98451

# Format of trapezoid gradients:
# id amplitude rise flat fall delay
# ..      Hz/m   us   us   us    us
[TRAP]
 1       444444 160 3000 160   0
 2      -552984 190  620 190   0
 3           -0 180  640 180   0
 4 -1.17037e+06 400  200 400   0
 5       416667 150 2000 150   0
 6  1.22549e+06 420  940 420   0
 7            0 180  640 180   0
 8  1.22324e+06 420  670 420   0
 9      -508130 180  640 180   0
10       508130 180  640 180   0
11      -503049 180  640 180   0
12       503049 180  640 180   0
13      -497967 180  640 180   0
14       497967 180  640 180   0
15      -492886 180  640 180   0
16       492886 180  640 180   0
17      -487805 180  640 180   0
18       487805 180  640 180   0
19      -482724 180  640 180   0
20       482724 180  640 180   0
21      -477642 180  640 180   0
22       477642 180  640 180   0
23      -472561 180  640 180   0
24       472561 180  640 180   0
25      -467480 180  640 180   0
26       467480 180  640 180   0
27      -462398 180  640 180   0
28       462398 180  640 180   0
29      -457317 180  640 180   0
30       457317 180  640 180   0
31      -452236 180  640 180   0
32       452236 180  640 180   0
33      -447154 180  640 180   0
34       447154 180  640 180   0
35      -442073 180  640 180   0
36       442073 180  640 180   0
37      -436992 180  640 180   0
38       436992 180  640 180   0
39      -431911 180  640 180   0
40       431911 180  640 180   0
41      -426829 180  640 180   0
42       426829 180  640 180   0
43      -421748 180  640 180   0
44       421748 180  640 180   0
45      -416667 180  640 180   0
46       416667 180  640 180   0
47      -411585 180  640 180   0
48       411585 180  640 180   0
49      -406504 180  640 180   0
50       406504 180  640 180   0
51      -401423 180  640 180   0
52       401423 180  640 180   0
53      -396341 180  640 180   0
54       396341 180  640 180   0
55      -391260 180  640 180   0
56       391260 180  640 180   0
57      -386179 180  640 180   0
58       386179 180  640 180   0
59      -381098 180  640 180   0
60       381098 180  640 180   0
61      -376016 180  640 180   0
62       376016 180  640 180   0
63      -370935 180  640 180   0
64       370935 180  640 180   0
65      -365854 180  640 180   0
66       365854 180  640 180   0
67      -360772 180  640 180   0
68       360772 180  640 180   0
69      -355691 180  640 180   0
70       355691 180  640 180   0
71      -350610 180  640 180   0
72       350610 180  640 180   0
73      -345528 180  640 180   0
74       345528 180  640 180   0
75      -340447 180  640 180   0
76       340447 180  640 180   0
77      -335366 180  640 180   0
78       335366 180  640 180   0
79      -330285 180  640 180   0
80       330285 180  640 180   0
81      -325203 180  640 180   0
82       325203 180  640 180   0
83      -320122 180  640 180   0
84       320122 180  640 180   0
85      -315041 180  640 180   0
86       315041 180  640 180   0
87      -309959 180  640 180   0
88       309959 180  640 180   0
89      -304878 180  640 180   0
90       304878 180  640 180   0
91      -299797 180  640 180   0
92       299797 180  640 180   0
93      -294715 180  640 180   0
94       294715 180  640 180   0
95      -289634 180  640 180   0
96       289634 180  640 180   0
97      -284553 180  640 180   0
98       284553 180  640 180   0
99      -279472 180  640 180   0
100       279472 180  640 180   0
101      -274390 180  640 180   0
102       274390 180  640 180   0
103      -269309 180  640 180   0
104       269309 180  640 180   0
105      -264228 180  640 180   0
106       264228 180  640 180   0
107      -259146 180  640 180   0
108       259146 180  640 180   0
109      -254065 180  640 180   0
110       254065 180  640 180   0
111      -248984 180  640 180   0
112       248984 180  640 180   0
113      -243902 180  640 180   0
114       243902 180  640 180   0
115      -238821 180  640 180   0
116       238821 180  640 180   0
117      -233740 180  640 180   0
118       233740 180  640 180   0
119      -228659 180  640 180   0
120       228659 180  640 180   0
121      -223577 180  640 180   0
122       223577 180  640 180   0
123      -218496 180  640 180   0
124       218496 180  640 180   0
125      -213415 180  640 180   0
126       213415 180  640 180   0
127      -208333 180  640 180   0
128       208333 180  640 180   0
129      -203252 180  640 180   0
130       203252 180  640 180   0
131      -198171 180  640 180   0
132       198171 180  640 180   0
133      -193089 180  640 180   0
134       193089 180  640 180   0
135      -188008 180  640 180   0
136       188008 180  640 180   0
137      -182927 180  640 180   0
138       182927 180  640 180   0
139      -177846 180  640 180   0
140       177846 180  640 180   0
141      -172764 180  640 180   0
142       172764 180  640 180   0
143      -167683 180  640 180   0
144       167683 180  640 180   0
145      -162602 180  640 180   0
146       162602 180  640 180   0
147      -157520 180  640 180   0
148       157520 180  640 180   0
149      -152439 180  640 180   0
150       152439 180  640 180   0
151      -147358 180  640 180   0
152       147358 180  640 180   0
153      -142276 180  640 180   0
154       142276 180  640 180   0
155      -137195 180  640 180   0
156       137195 180  640 180   0
157      -132114 180  640 180   0
158       132114 180  640 180   0
159      -127033 180  640 180   0
160       127033 180  640 180   0
161      -121951 180  640 180   0
162       121951 180  640 180   0
163      -116870 180  640 180   0
164       116870 180  640 180   0
165      -111789 180  640 180   0
166       111789 180  640 180   0
167      -106707 180  640 180   0
168       106707 180  640 180   0
169      -101626 180  640 180   0
170       101626 180  640 180   0
171     -96544.7 180  640 180   0
172      96544.7 180  640 180   0
173     -91463.4 180  640 180   0
174      91463.4 180  640 180   0
175     -86382.1 180  640 180   0
176      86382.1 180  640 180   0
177     -81300.8 180  640 180   0
178      81300.8 180  640 180   0
179     -76219.5 180  640 180   0
180      76219.5 180  640 180   0
181     -71138.2 180  640 180   0
182      71138.2 180  640 180   0
183     -66056.9 180  640 180   0
184      66056.9 180  640 180   0
185     -60975.6 180  640 180   0
186      60975.6 180  640 180   0
187     -55894.3 180  640 180   0
188      55894.3 180  640 180   0
189       -50813 180  640 180   0
190        50813 180  640 180   0
191     -45731.7 180  640 180   0
192      45731.7 180  640 180   0
193     -40650.4 180  640 180   0
194      40650.4 180  640 180   0
195     -35569.1 180  640 180   0
196      35569.1 180  640 180   0
197     -30487.8 180  640 180   0
198      30487.8 180  640 180   0
199     -25406.5 180  640 180   0
200      25406.5 180  640 180   0
201     -20325.2 180  640 180   0
202      20325.2 180  640 180   0
203     -15243.9 180  640 180   0
204      15243.9 180  640 180   0
205     -10162.6 180  640 180   0
206      10162.6 180  640 180   0
207      -5081.3 180  640 180   0
208       5081.3 180  640 180   0

# Format of ADC events:
# id num dwell delay freq phase
# ..  ..    ns    us   Hz   rad
[ADC]
1 200 10000 150 0 1.5708
2 200 10000 150 0 0.471239
3 200 10000 150 0 1.41372
4 200 10000 150 0 4.39823
5 200 10000 150 0 3.14159
6 200 10000 150 0 3.92699
7 200 10000 150 0 5.34071
8 200 10000 150 0 5.96903
9 200 10000 150 0 2.35619
10 200 10000 150 0 0.785398
11 200 10000 150 0 1.25664
12 200 10000 150 0 3.76991
13 200 10000 150 0 2.04204
14 200 10000 150 0 4.71239
15 200 10000 150 0 2.82743
16 200 10000 150 0 2.98451
17 200 10000 150 0 5.18363
18 200 10000 150 0 3.61283
19 200 10000 150 0 4.55531
20 200 10000 150 0 0
21 200 10000 150 0 2.19911
22 200 10000 150 0 5.49779
23 200 10000 150 0 0.628319
24 200 10000 150 0 6.12611

# Format of extension lists:
# id type ref next_id
# next_id of 0 terminates the list
# Extension list is followed by extension specifications
[EXTENSIONS]
1 1 1 0
2 1 2 0

# Extension specification for setting labels:
# id set labelstring
extension LABELSET 1
1 1 TRID
2 2 TRID

# Sequence Shapes
[SHAPES]

shape_id 1
num_samples 3000
5.33512061e-05
0.000160161335
0.000267116839
0.000374219827
0.000481472412
0.000588876712
0.00069643485
0.000804148955
0.000912021157
0.00102005359
0.0011282484
0.00123660773
0.00134513373
0.00145382854
0.00156269432
0.00167173322
0.00178094741
0.00189033905
0.0019999103
0.00210966333
0.00221960031
0.00232972341
0.00244003479
0.00255053664
0.00266123112
0.00277212042
0.0028832067
0.00299449215
0.00310597893
0.00321766924
0.00332956523
0.0034416691
0.00355398301
0.00366650915
0.00377924967
0.00389220677
0.0040053826
0.00411877934
0.00423239915
0.00434624421
0.00446031667
0.0045746187
0.00468915245
0.00480392009
0.00491892375
0.0050341656
0.00514964778
0.00526537242
0.00538134167
0.00549755767
0.00561402253
0.00573073839
0.00584770736
0.00596493156
0.0060824131
0.00620015408
0.0063181566
0.00643642275
0.00655495462
0.00667375429
0.00679282382
0.0069121653
0.00703178077
0.00715167228
0.00727184189
0.00739229163
0.00751302352
0.00763403959
0.00775534184
0.00787693229
0.00799881293
0.00812098573
0.00824345268
0.00836621575
0.00848927689
0.00861263804
0.00873630115
0.00886026813
0.00898454092
0.0091091214
0.00923401147
0.00935921303
0.00948472792
0.00961055802
0.00973670518
0.00986317122
0.00998995796
0.0101170672
0.0102445008
0.0103722605
0.010500348
0.0106287652
0.0107575137
0.0108865953
0.0110160118
0.0111457647
0.0112758559
0.0114062868
0.0115370594
0.011668175
0.0117996355
0.0119314423
0.0120635972
0.0121961015
0.012328957
0.0124621652
0.0125957275
0.0127296456
0.0128639208
0.0129985546
0.0131335486
0.0132689041
0.0134046226
0.0135407055
0.013677154
0.0138139698
0.0139511539
0.0140887078
0.0142266329
0.0143649302
0.0145036012
0.0146426471
0.0147820691
0.0149218683
0.0150620461
0.0152026035
0.0153435416
0.0154848617
0.0156265647
0.0157686518
0.015911124
0.0160539824
0.0161972279
0.0163408615
0.0164848842
0.016629297
0.0167741007
0.0169192962
0.0170648843
0.0172108661
0.0173572421
0.0175040133
0.0176511804
0.0177987441
0.0179467052
0.0180950644
0.0182438222
0.0183929794
0.0185425366
0.0186924943
0.0188428531
0.0189936136
0.0191447761
0.0192963414
0.0194483097
0.0196006814
0.0197534571
0.019906637
0.0200602216
0.020214211
0.0203686056
0.0205234057
0.0206786114
0.020834223
0.0209902406
0.0211466644
0.0213034945
0.0214607308
0.0216183736
0.0217764228
0.0219348784
0.0220937403
0.0222530084
0.0224126827
0.0225727631
0.0227332492
0.022894141
0.0230554382
0.0232171406
0.0233792478
0.0235417594
0.0237046752
0.0238679948
0.0240317176
0.0241958433
0.0243603714
0.0245253012
0.0246906323
0.0248563641
0.0250224958
0.0251890269
0.0253559566
0.0255232843
0.025691009
0.0258591301
0.0260276467
0.0261965579
0.0263658627
0.0265355603
0.0267056496
0.0268761297
0.0270469995
0.0272182578
0.0273899036
0.0275619356
0.0277343527
0.0279071537
0.0280803372
0.028253902
0.0284278466
0.0286021697
0.0287768699
0.0289519457
0.0291273956
0.029303218
0.0294794114
0.0296559741
0.0298329045
0.0300102009
0.0301878615
0.0303658846
0.0305442683
0.0307230109
0.0309021103
0.0310815647
0.0312613721
0.0314415304
0.0316220377
0.0318028918
0.0319840905
0.0321656318
0.0323475134
0.032529733
0.0327122883
0.032895177
0.0330783967
0.033261945
0.0334458194
0.0336300174
0.0338145364
0.033999374
0.0341845274
0.0343699939
0.0345557709
0.0347418555
0.0349282451
0.0351149367
0.0353019274
0.0354892144
0.0356767946
0.035864665
0.0360528226
0.0362412643
0.036429987
0.0366189873
0.0368082622
0.0369978083
0.0371876223
0.0373777009
0.0375680406
0.037758638
0.0379494896
0.0381405919
0.0383319412
0.038523534
0.0387153666
0.0389074352
0.0390997361
0.0392922655
0.0394850196
0.0396779943
0.0398711859
0.0400645904
0.0402582036
0.0404520215
0.04064604
0.0408402549
0.0410346621
0.0412292572
0.041424036
0.0416189941
0.0418141271
0.0420094306
0.0422049002
0.0424005311
0.042596319
0.0427922591
0.0429883469
0.0431845775
0.0433809463
0.0435774484
0.043774079
0.0439708332
0.044167706
0.0443646925
0.0445617876
0.0447589862
0.0449562833
0.0451536736
0.0453511519
0.0455487129
0.0457463514
0.045944062
0.0461418393
0.0463396777
0.0465375719
0.0467355163
0.0469335053
0.0471315333
0.0473295945
0.0475276832
0.0477257938
0.0479239202
0.0481220568
0.0483201975
0.0485183364
0.0487164674
0.0489145847
0.0491126819
0.0493107531
0.0495087919
0.0497067922
0.0499047476
0.0501026519
0.0503004986
0.0504982813
0.0506959936
0.0508936289
0.0510911807
0.0512886424
0.0514860072
0.0516832685
0.0518804196
0.0520774536
0.0522743638
0.0524711431
0.0526677847
0.0528642817
0.0530606269
0.0532568133
0.0534528338
0.0536486812
0.0538443484
0.054039828
0.0542351127
0.0544301953
0.0546250683
0.0548197242
0.0550141557
0.0552083552
0.055402315
0.0555960276
0.0557894854
0.0559826805
0.0561756053
0.056368252
0.0565606126
0.0567526794
0.0569444444
0.0571358996
0.057327037
0.0575178486
0.0577083261
0.0578984615
0.0580882466
0.058277673
0.0584667326
0.0586554171
0.0588437179
0.0590316268
0.0592191352
0.0594062346
0.0595929165
0.0597791724
0.0599649935
0.0601503711
0.0603352967
0.0605197613
0.0607037563
0.0608872727
0.0610703017
0.0612528342
0.0614348615
0.0616163743
0.0617973638
0.0619778207
0.0621577359
0.0623371003
0.0625159045
0.0626941395
0.0628717957
0.063048864
0.0632253349
0.0634011989
0.0635764466
0.0637510686
0.0639250551
0.0640983967
0.0642710837
0.0644431065
0.0646144553
0.0647851204
0.0649550919
0.0651243601
0.0652929152
0.0654607471
0.0656278459
0.0657942017
0.0659598045
0.0661246441
0.0662887106
0.0664519936
0.0666144832
0.066776169
0.0669370408
0.0670970884
0.0672563014
0.0674146694
0.0675721821
0.0677288291
0.0678845998
0.0680394838
0.0681934705
0.0683465494
0.0684987098
0.0686499411
0.0688002327
0.0689495738
0.0690979537
0.0692453615
0.0693917866
0.0695372179
0.0696816448
0.0698250561
0.0699674411
0.0701087887
0.0702490879
0.0703883276
0.0705264968
0.0706635844
0.0707995792
0.07093447
0.0710682457
0.071200895
0.0713324067
0.0714627694
0.0715919719
0.0717200028
0.0718468506
0.071972504
0.0720969516
0.0722201818
0.0723421832
0.0724629442
0.0725824532
0.0727006988
0.0728176692
0.0729333529
0.0730477381
0.0731608132
0.0732725665
0.0733829861
0.0734920604
0.0735997774
0.0737061255
0.0738110928
0.0739146673
0.0740168372
0.0741175905
0.0742169153
0.0743147997
0.0744112315
0.0745061989
0.0745996898
0.074691692
0.0747821936
0.0748711824
0.0749586462
0.075044573
0.0751289505
0.0752117665
0.0752930089
0.0753726654
0.0754507237
0.0755271716
0.0756019967
0.0756751868
0.0757467295
0.0758166125
0.0758848234
0.0759513498
0.0760161793
0.0760792995
0.0761406979
0.076200362
0.0762582795
0.0763144379
0.0763688245
0.0764214269
0.0764722326
0.076521229
0.0765684036
0.0766137437
0.0766572368
0.0766988703
0.0767386316
0.0767765079
0.0768124868
0.0768465554
0.0768787013
0.0769089116
0.0769371737
0.076963475
0.0769878026
0.0770101438
0.077030486
0.0770488165
0.0770651223
0.0770793909
0.0770916094
0.077101765
0.0771098451
0.0771158367
0.0771197271
0.0771215035
0.0771211531
0.0771186631
0.0771140207
0.077107213
0.0770982273
0.0770870506
0.0770736701
0.0770580731
0.0770402467
0.0770201779
0.0769978541
0.0769732623
0.0769463896
0.0769172233
0.0768857505
0.0768519583
0.0768158339
0.0767773643
0.0767365369
0.0766933386
0.0766477567
0.0765997784
0.0765493907
0.0764965808
0.0764413358
0.0763836431
0.0763234896
0.0762608626
0.0761957493
0.0761281368
0.0760580122
0.0759853629
0.075910176
0.0758324387
0.0757521382
0.0756692617
0.0755837964
0.0754957297
0.0754050486
0.0753117405
0.0752157926
0.0751171921
0.0750159265
0.0749119829
0.0748053486
0.0746960109
0.0745839573
0.0744691749
0.0743516512
0.0742313734
0.074108329
0.0739825054
0.0738538899
0.07372247
0.073588233
0.0734511665
0.0733112578
0.0731684945
0.0730228641
0.0728743539
0.0727229516
0.0725686447
0.0724114208
0.0722512674
0.0720881722
0.0719221226
0.0717531065
0.0715811113
0.0714061249
0.0712281348
0.0710471289
0.0708630948
0.0706760203
0.0704858932
0.0702927013
0.0700964323
0.0698970743
0.069694615
0.0694890423
0.0692803441
0.0690685085
0.0688535234
0.0686353768
0.0684140566
0.0681895511
0.0679618482
0.067730936
0.0674968028
0.0672594366
0.0670188257
0.0667749582
0.0665278225
0.0662774069
0.0660236995
0.0657666889
0.0655063633
0.0652427112
0.0649757211
0.0647053813
0.0644316804
0.064154607
0.0638741496
0.0635902969
0.0633030374
0.0630123599
0.062718253
0.0624207056
0.0621197064
0.0618152443
0.061507308
0.0611958866
0.0608809689
0.060562544
0.0602406008
0.0599151284
0.0595861158
0.0592535524
0.0589174271
0.0585777293
0.0582344481
0.0578875729
0.0575370931
0.057182998
0.056825277
0.0564639196
0.0560989154
0.0557302539
0.0553579247
0.0549819174
0.0546022218
0.0542188276
0.0538317245
0.0534409025
0.0530463514
0.0526480611
0.0522460216
0.0518402229
0.0514306552
0.0510173085
0.050600173
0.0501792389
0.0497544965
0.0493259362
0.0488935483
0.0484573232
0.0480172514
0.0475733235
0.0471255301
0.0466738617
0.046218309
0.0457588629
0.0452955141
0.0448282535
0.044357072
0.0438819605
0.04340291
0.0429199118
0.0424329568
0.0419420363
0.0414471415
0.0409482637
0.0404453944
0.0399385249
0.0394276467
0.0389127514
0.0383938305
0.0378708757
0.0373438788
0.0368128315
0.0362777257
0.0357385533
0.0351953062
0.0346479766
0.0340965564
0.0335410379
0.0329814132
0.0324176747
0.0318498147
0.0312778257
0.0307017
0.0301214303
0.0295370092
0.0289484293
0.0283556834
0.0277587643
0.0271576649
0.0265523781
0.0259428969
0.0253292145
0.024711324
0.0240892186
0.0234628916
0.0228323363
0.0221975462
0.0215585148
0.0209152357
0.0202677025
0.0196159089
0.0189598487
0.0182995158
0.0176349041
0.0169660075
0.0162928203
0.0156153365
0.0149335504
0.0142474563
0.0135570485
0.0128623215
0.0121632698
0.011459888
0.0107521708
0.010040113
0.00932370935
0.0086029548
0.00787784432
0.00714837297
0.00641453591
0.00567632833
0.00493374555
0.00418678294
0.00343543595
0.00267970012
0.00191957106
0.00115504448
0.00038611613
0.000387218116
0.00116496233
0.00194712048
0.00273369648
0.00352469414
0.0043201172
0.00511996931
0.00592425405
0.00673297489
0.00754613524
0.00836373842
0.00918578767
0.0100122861
0.0108432369
0.0116786429
0.0125185071
0.0133628323
0.0142116211
0.0150648763
0.0159226004
0.0167847959
0.0176514651
0.0185226103
0.0193982338
0.0202783376
0.0211629238
0.0220519944
0.0229455511
0.0238435958
0.0247461301
0.0256531556
0.0265646738
0.0274806861
0.0284011939
0.0293261983
0.0302557006
0.0311897016
0.0321282025
0.033071204
0.034018707
0.0349707121
0.0359272199
0.036888231
0.0378537456
0.0388237642
0.0397982869
0.0407773139
0.0417608452
0.0427488808
0.0437414205
0.044738464
0.045740011
0.0467460612
0.0477566139
0.0487716685
0.0497912243
0.0508152805
0.0518438363
0.0528768905
0.0539144421
0.0549564899
0.0560030326
0.0570540688
0.0581095971
0.0591696158
0.0602341233
0.0613031178
0.0623765975
0.0634545603
0.0645370042
0.0656239271
0.0667153267
0.0678112006
0.0689115463
0.0700163614
0.0711256432
0.0722393889
0.0733575956
0.0744802605
0.0756073804
0.0767389523
0.0778749729
0.0790154388
0.0801603466
0.0813096928
0.0824634736
0.0836216855
0.0847843245
0.0859513867
0.087122868
0.0882987643
0.0894790714
0.0906637849
